XY Plot 2
Freq [GHz]
mag(S(1,1)) []
__cartesian__ 0 0 37.000000 0.050118 38.000000 0.291190
__settings__ 1 0 0 0 11 11 0 0 0 0
37 0.0501178
37.01 0.0503493
37.02 0.0506494
37.03 0.0510253
37.04 0.0514845
37.05 0.0520351
37.06 0.0526858
37.07 0.0534457
37.08 0.0543247
37.09 0.0553329
37.1 0.0564812
37.11 0.0577809
37.12 0.0592442
37.13 0.0608834
37.14 0.062712
37.15 0.0647438
37.16 0.0669937
37.17 0.0694772
37.18 0.0722112
37.19 0.0752131
37.2 0.0785021
37.21 0.0820984
37.22 0.0860236
37.23 0.0903009
37.24 0.0949549
37.25 0.100012
37.26 0.105499
37.27 0.111446
37.28 0.11788
37.29 0.124831
37.3 0.132325
37.31 0.140386
37.32 0.149032
37.33 0.158269
37.34 0.168091
37.35 0.178474
37.36 0.189364
37.37 0.200676
37.38 0.212282
37.39 0.224006
37.4 0.235624
37.41 0.246864
37.42 0.257419
37.43 0.266968
37.44 0.275205
37.45 0.281873
37.46 0.286794
37.47 0.28989
37.48 0.29119
37.49 0.290814
37.5 0.288957
37.51 0.285855
37.52 0.28176
37.53 0.276918
37.54 0.271549
37.55 0.265843
37.56 0.259958
37.57 0.254018
37.58 0.248115
37.59 0.242321
37.6 0.236683
37.61 0.231236
37.62 0.226001
37.63 0.220987
37.64 0.2162
37.65 0.211639
37.66 0.207299
37.67 0.203173
37.68 0.199254
37.69 0.195532
37.7 0.191998
37.71 0.18864
37.72 0.185451
37.73 0.182419
37.74 0.179535
37.75 0.176792
37.76 0.174179
37.77 0.17169
37.78 0.169317
37.79 0.167053
37.8 0.164891
37.81 0.162826
37.82 0.16085
37.83 0.15896
37.84 0.157151
37.85 0.155416
37.86 0.153753
37.87 0.152157
37.88 0.150624
37.89 0.149151
37.9 0.147734
37.91 0.146372
37.92 0.145059
37.93 0.143795
37.94 0.142576
37.95 0.1414
37.96 0.140265
37.97 0.13917
37.98 0.138111
37.99 0.137087
38 0.136096
mag(S(1,1)) []
__settings__ -1 8 2 0 1 1
