XY Plot 2
Freq [GHz]
mag(S(1,1)) []
__cartesian__ 0 0 37.000000 0.059651 38.000000 0.312993
__settings__ 1 0 0 0 11 11 0 0 0 0
37 0.059723
37.01 0.0596676
37.02 0.0596512
37.03 0.0596785
37.04 0.0597542
37.05 0.0598837
37.06 0.0600729
37.07 0.0603278
37.08 0.0606552
37.09 0.0610624
37.1 0.061557
37.11 0.0621474
37.12 0.0628423
37.13 0.0636511
37.14 0.0645837
37.15 0.0656503
37.16 0.0668621
37.17 0.0682304
37.18 0.0697674
37.19 0.0714855
37.2 0.0733981
37.21 0.075519
37.22 0.0778625
37.23 0.080444
37.24 0.0832793
37.25 0.0863852
37.26 0.0897792
37.27 0.0934799
37.28 0.0975068
37.29 0.10188
37.3 0.106622
37.31 0.111753
37.32 0.117298
37.33 0.123278
37.34 0.129716
37.35 0.136635
37.36 0.144054
37.37 0.15199
37.38 0.160452
37.39 0.169445
37.4 0.178961
37.41 0.188978
37.42 0.199454
37.43 0.210326
37.44 0.221501
37.45 0.232854
37.46 0.244227
37.47 0.255426
37.48 0.266229
37.49 0.276394
37.5 0.285673
37.51 0.293834
37.52 0.300678
37.53 0.306058
37.54 0.309898
37.55 0.312189
37.56 0.312993
37.57 0.312429
37.58 0.310658
37.59 0.30786
37.6 0.304227
37.61 0.299943
37.62 0.295174
37.63 0.290071
37.64 0.284759
37.65 0.27934
37.66 0.273898
37.67 0.268496
37.68 0.263184
37.69 0.257997
37.7 0.25296
37.71 0.24809
37.72 0.243396
37.73 0.238885
37.74 0.234558
37.75 0.230413
37.76 0.226446
37.77 0.222654
37.78 0.219029
37.79 0.215565
37.8 0.212255
37.81 0.209093
37.82 0.20607
37.83 0.203181
37.84 0.200418
37.85 0.197775
37.86 0.195244
37.87 0.192822
37.88 0.1905
37.89 0.188275
37.9 0.186141
37.91 0.184092
37.92 0.182125
37.93 0.180235
37.94 0.178419
37.95 0.176671
37.96 0.174989
37.97 0.173369
37.98 0.171808
37.99 0.170304
38 0.168852
mag(S(1,1)) []
__settings__ -1 8 2 0 1 1
